Focus Mode,Read Mode,Exposure Time (sec),Number of Frames,Start Y,End Y,Date,Time,Position (microns)
Single Acquisition,Spectrum,20.000000,3,105,125,2/10/2021,2:13:25 PM,0.000000,0.000000,200.010000,

1249.000,1246.000,1245.000
1243.000,1250.000,1249.000
1243.000,1248.000,1245.000
1249.000,1249.000,1249.000
1245.000,1249.000,1248.000
1253.000,1253.000,1250.000
1255.000,1253.000,1253.000
1253.000,1257.000,1246.000
1253.000,1251.000,1247.000
1255.000,1250.000,1249.000
1251.000,1249.000,1244.000
1257.000,1250.000,1256.000
1259.000,1256.000,1252.000
1254.000,1251.000,1253.000
1259.000,1255.000,1263.000
1257.000,1260.000,1253.000
1259.000,1256.000,1257.000
1271.000,1263.000,1257.000
1262.000,1263.000,1256.000
1263.000,1263.000,1254.000
1264.000,1261.000,1272.000
1271.000,1261.000,1265.000
1265.000,1271.000,1264.000
1272.000,1267.000,1265.000
1267.000,1264.000,1269.000
1267.000,1271.000,1265.000
1273.000,1274.000,1268.000
1282.000,1279.000,1273.000
1275.000,1275.000,1274.000
1285.000,1283.000,1279.000
1272.000,1273.000,1287.000
1287.000,1281.000,1285.000
1283.000,1275.000,1279.000
1276.000,1282.000,1275.000
1283.000,1279.000,1291.000
1295.000,1279.000,1295.000
1280.000,1297.000,1288.000
1295.000,1296.000,1297.000
1288.000,1293.000,1300.000
1294.000,1290.000,1298.000
1295.000,1300.000,1295.000
1290.000,1303.000,1296.000
1305.000,1310.000,1303.000
1306.000,1298.000,1312.000
1313.000,1321.000,1308.000
1311.000,1310.000,1323.000
1312.000,1315.000,1320.000
1312.000,1307.000,1325.000
1330.000,1327.000,1320.000
1332.000,1338.000,1324.000
1335.000,1336.000,1336.000
1333.000,1338.000,1327.000
1344.000,1342.000,1333.000
1328.000,1345.000,1341.000
1349.000,1345.000,1350.000
1350.000,1351.000,1361.000
1356.000,1348.000,1351.000
1365.000,1356.000,1358.000
1357.000,1356.000,1375.000
1368.000,1379.000,1363.000
1368.000,1394.000,1369.000
1382.000,1383.000,1376.000
1383.000,1370.000,1385.000
1384.000,1383.000,1382.000
1396.000,1387.000,1390.000
1405.000,1400.000,1413.000
1408.000,1405.000,1411.000
1404.000,1398.000,1413.000
1441.000,1418.000,1418.000
1419.000,1422.000,1413.000
1415.000,1431.000,1431.000
1441.000,1456.000,1451.000
1443.000,1455.000,1449.000
1470.000,1470.000,1460.000
1465.000,1462.000,1475.000
1495.000,1492.000,1488.000
1523.000,1501.000,1511.000
1496.000,1531.000,1502.000
1513.000,1505.000,1535.000
1523.000,1521.000,1532.000
1534.000,1554.000,1548.000
1555.000,1561.000,1531.000
1561.000,1562.000,1574.000
1567.000,1580.000,1575.000
1601.000,1586.000,1603.000
1602.000,1592.000,1598.000
1581.000,1611.000,1606.000
1608.000,1617.000,1608.000
1624.000,1617.000,1645.000
1652.000,1654.000,1670.000
1659.000,1660.000,1655.000
1660.000,1654.000,1670.000
1681.000,1666.000,1665.000
1718.000,1729.000,1733.000
1741.000,1702.000,1727.000
1759.000,1729.000,1774.000
1799.000,1788.000,1815.000
1835.000,1863.000,1831.000
1924.000,1910.000,1890.000
1954.000,1980.000,1935.000
2021.000,1996.000,2033.000
2091.000,2112.000,2126.000
2151.000,2154.000,2163.000
2243.000,2199.000,2245.000
2268.000,2279.000,2260.000
2303.000,2310.000,2334.000
2309.000,2340.000,2327.000
2365.000,2362.000,2371.000
2401.000,2420.000,2403.000
2417.000,2416.000,2409.000
2424.000,2428.000,2479.000
2483.000,2465.000,2465.000
2451.000,2501.000,2535.000
2548.000,2542.000,2553.000
2586.000,2631.000,2596.000
2679.000,2698.000,2657.000
2817.000,2849.000,2818.000
2919.000,2923.000,2999.000
3191.000,3228.000,3161.000
3598.000,3576.000,3577.000
4263.000,4323.000,4205.000
5762.000,5844.000,5731.000
9890.000,9975.000,9745.000
22993.000,23134.000,22816.000
61582.000,61594.000,61521.000
62117.000,62112.000,62106.000
62036.000,62035.000,62032.000
61977.000,61971.000,61976.000
61979.000,61986.000,61984.000
61977.000,61977.000,61976.000
61958.000,61956.000,61956.000
61954.000,61953.000,61954.000
61957.000,61963.000,61953.000
61955.000,61952.000,61949.000
61944.000,61950.000,61941.000
61942.000,61947.000,61946.000
61948.000,61948.000,61947.000
61946.000,61946.000,61942.000
61946.000,61949.000,61944.000
61941.000,61944.000,61946.000
61940.000,61944.000,61942.000
61938.000,61944.000,61942.000
61945.000,61939.000,61941.000
61943.000,61944.000,61940.000
61942.000,61943.000,61944.000
61940.000,61943.000,61936.000
61938.000,61943.000,61942.000
61940.000,61943.000,61943.000
61943.000,61941.000,61937.000
61937.000,61942.000,61940.000
61942.000,61946.000,61944.000
61945.000,61941.000,61941.000
61946.000,61940.000,61939.000
61940.000,61945.000,61939.000
61942.000,61943.000,61932.000
61942.000,61941.000,61939.000
61943.000,61940.000,61944.000
61941.000,61943.000,61940.000
61939.000,61945.000,61934.000
61943.000,61944.000,61937.000
61939.000,61943.000,61937.000
61937.000,61942.000,61941.000
61943.000,61942.000,61942.000
61941.000,61945.000,61941.000
61941.000,61945.000,61936.000
61935.000,61940.000,61940.000
61942.000,61943.000,61940.000
61941.000,61948.000,61941.000
61945.000,61942.000,61940.000
61941.000,61945.000,61937.000
61941.000,61945.000,61945.000
61943.000,61946.000,61942.000
61943.000,61946.000,61942.000
61955.000,61953.000,61956.000
61981.000,61981.000,61982.000
61919.000,62112.000,61555.000
1674.000,1667.000,1657.000
1563.000,1550.000,1581.000
1540.000,1545.000,1531.000
1531.000,1534.000,1536.000
1527.000,1507.000,1498.000
1507.000,1508.000,1502.000
1488.000,1497.000,1486.000
1477.000,1498.000,1486.000
1482.000,1498.000,1467.000
1474.000,1465.000,1462.000
1454.000,1453.000,1450.000
1447.000,1450.000,1454.000
1421.000,1432.000,1444.000
1431.000,1438.000,1440.000
1444.000,1432.000,1424.000
1427.000,1435.000,1414.000
1426.000,1409.000,1425.000
1417.000,1407.000,1420.000
1399.000,1410.000,1414.000
1401.000,1408.000,1411.000
1403.000,1407.000,1403.000
1408.000,1402.000,1410.000
1391.000,1406.000,1393.000
1387.000,1373.000,1383.000
1391.000,1394.000,1391.000
1387.000,1390.000,1390.000
1386.000,1392.000,1388.000
1372.000,1391.000,1404.000
1382.000,1383.000,1387.000
1374.000,1373.000,1386.000
1369.000,1363.000,1360.000
1384.000,1368.000,1372.000
1365.000,1377.000,1371.000
1368.000,1361.000,1362.000
1356.000,1362.000,1357.000
1357.000,1374.000,1366.000
1360.000,1349.000,1362.000
1369.000,1372.000,1346.000
1348.000,1354.000,1345.000
1349.000,1350.000,1353.000
1354.000,1348.000,1339.000
1351.000,1340.000,1358.000
1343.000,1335.000,1339.000
1330.000,1340.000,1335.000
1346.000,1334.000,1339.000
1338.000,1335.000,1336.000
1326.000,1336.000,1336.000
1339.000,1331.000,1327.000
1326.000,1343.000,1335.000
1325.000,1331.000,1342.000
1319.000,1325.000,1327.000
1334.000,1322.000,1336.000
1328.000,1345.000,1328.000
1325.000,1324.000,1318.000
1314.000,1333.000,1334.000
1328.000,1317.000,1320.000
1318.000,1325.000,1316.000
1322.000,1321.000,1325.000
1305.000,1326.000,1323.000
1327.000,1314.000,1305.000
1320.000,1323.000,1311.000
1317.000,1325.000,1307.000
1318.000,1311.000,1314.000
1298.000,1308.000,1306.000
1308.000,1315.000,1308.000
1307.000,1325.000,1315.000
1321.000,1302.000,1314.000
1302.000,1308.000,1305.000
1305.000,1306.000,1297.000
1292.000,1313.000,1302.000
1309.000,1307.000,1306.000
1298.000,1311.000,1311.000
1306.000,1309.000,1298.000
1305.000,1298.000,1300.000
1294.000,1301.000,1300.000
1297.000,1301.000,1299.000
1307.000,1291.000,1300.000
1291.000,1291.000,1292.000
1292.000,1305.000,1296.000
1294.000,1301.000,1291.000
1296.000,1302.000,1298.000
1293.000,1299.000,1296.000
1297.000,1287.000,1289.000
1292.000,1303.000,1298.000
1296.000,1292.000,1301.000
1292.000,1290.000,1307.000
1293.000,1288.000,1290.000
1294.000,1291.000,1291.000
1291.000,1295.000,1291.000
1294.000,1287.000,1288.000
1298.000,1299.000,1291.000
1286.000,1289.000,1287.000
1291.000,1293.000,1294.000
1285.000,1292.000,1280.000
1291.000,1283.000,1284.000
1279.000,1285.000,1283.000
1286.000,1284.000,1288.000
1289.000,1289.000,1286.000
1287.000,1283.000,1283.000
1285.000,1284.000,1286.000
1275.000,1286.000,1285.000
1286.000,1286.000,1283.000
1288.000,1280.000,1285.000
1282.000,1273.000,1290.000
1279.000,1275.000,1278.000
1277.000,1290.000,1282.000
1290.000,1275.000,1277.000
1279.000,1276.000,1279.000
1278.000,1285.000,1283.000
1288.000,1282.000,1280.000
1283.000,1283.000,1283.000
1281.000,1284.000,1285.000
1283.000,1278.000,1282.000
1277.000,1286.000,1280.000
1287.000,1286.000,1280.000
1279.000,1288.000,1285.000
1291.000,1292.000,1284.000
1294.000,1281.000,1293.000
1281.000,1288.000,1298.000
1294.000,1288.000,1286.000
1284.000,1281.000,1296.000
1289.000,1297.000,1294.000
1304.000,1305.000,1301.000
1310.000,1303.000,1302.000
1310.000,1306.000,1311.000
1318.000,1317.000,1314.000
1317.000,1326.000,1325.000
1327.000,1317.000,1321.000
1354.000,1346.000,1334.000
1337.000,1345.000,1348.000
1365.000,1354.000,1349.000
1372.000,1371.000,1383.000
1399.000,1390.000,1394.000
1421.000,1424.000,1413.000
1444.000,1456.000,1443.000
1487.000,1470.000,1462.000
1516.000,1511.000,1513.000
1551.000,1554.000,1545.000
1610.000,1616.000,1597.000
1653.000,1651.000,1657.000
1742.000,1707.000,1728.000
1774.000,1763.000,1791.000
1831.000,1810.000,1830.000
1871.000,1874.000,1881.000
1955.000,1980.000,1960.000
2030.000,2028.000,2045.000
2094.000,2055.000,2114.000
2108.000,2105.000,2155.000
2229.000,2204.000,2205.000
2182.000,2204.000,2240.000
2287.000,2230.000,2272.000
2264.000,2293.000,2299.000
2332.000,2296.000,2325.000
2306.000,2350.000,2313.000
2331.000,2338.000,2336.000
2377.000,2345.000,2359.000
2368.000,2370.000,2348.000
2334.000,2348.000,2341.000
2332.000,2329.000,2323.000
2368.000,2331.000,2358.000
2309.000,2327.000,2336.000
2310.000,2328.000,2364.000
2325.000,2304.000,2358.000
2338.000,2305.000,2290.000
2316.000,2300.000,2310.000
2268.000,2282.000,2260.000
2261.000,2313.000,2289.000
2280.000,2295.000,2311.000
2285.000,2234.000,2283.000
2243.000,2246.000,2246.000
2238.000,2263.000,2264.000
2231.000,2242.000,2265.000
2229.000,2246.000,2236.000
2271.000,2225.000,2237.000
2209.000,2219.000,2216.000
2209.000,2174.000,2242.000
2182.000,2245.000,2197.000
2189.000,2224.000,2207.000
2183.000,2217.000,2211.000
2207.000,2199.000,2200.000
2198.000,2193.000,2177.000
2172.000,2170.000,2193.000
2192.000,2172.000,2186.000
2181.000,2161.000,2152.000
2195.000,2172.000,2191.000
2172.000,2183.000,2155.000
2169.000,2186.000,2174.000
2165.000,2170.000,2158.000
2170.000,2165.000,2167.000
2130.000,2121.000,2161.000
2153.000,2178.000,2157.000
2125.000,2174.000,2135.000
2149.000,2111.000,2138.000
2146.000,2157.000,2128.000
2138.000,2140.000,2148.000
2168.000,2147.000,2169.000
2162.000,2127.000,2148.000
2150.000,2164.000,2149.000
2152.000,2109.000,2131.000
2140.000,2128.000,2188.000
2148.000,2124.000,2150.000
2139.000,2134.000,2151.000
2158.000,2150.000,2147.000
2146.000,2159.000,2144.000
2150.000,2152.000,2165.000
2127.000,2149.000,2159.000
2155.000,2168.000,2170.000
2144.000,2154.000,2164.000
2187.000,2156.000,2142.000
2133.000,2146.000,2141.000
2171.000,2145.000,2158.000
2124.000,2143.000,2173.000
2132.000,2197.000,2168.000
2185.000,2144.000,2164.000
2165.000,2178.000,2191.000
2179.000,2202.000,2184.000
2173.000,2193.000,2187.000
2195.000,2171.000,2204.000
2193.000,2190.000,2186.000
2198.000,2212.000,2226.000
2207.000,2183.000,2239.000
2209.000,2181.000,2223.000
2171.000,2209.000,2202.000
2210.000,2163.000,2203.000
2193.000,2227.000,2217.000
2260.000,2235.000,2209.000
2235.000,2187.000,2230.000
2229.000,2252.000,2253.000
2239.000,2227.000,2241.000
2264.000,2225.000,2225.000
2257.000,2261.000,2251.000
2269.000,2239.000,2233.000
2226.000,2241.000,2254.000
2255.000,2244.000,2255.000
2216.000,2277.000,2270.000
2271.000,2243.000,2292.000
2276.000,2263.000,2267.000
2288.000,2264.000,2335.000
2280.000,2284.000,2304.000
2287.000,2280.000,2309.000
2296.000,2348.000,2290.000
2313.000,2317.000,2332.000
2319.000,2293.000,2335.000
2343.000,2371.000,2336.000
2339.000,2335.000,2376.000
2322.000,2344.000,2361.000
2382.000,2363.000,2343.000
2363.000,2378.000,2394.000
2417.000,2400.000,2386.000
2386.000,2436.000,2402.000
2440.000,2430.000,2430.000
2450.000,2444.000,2445.000
2432.000,2489.000,2466.000
2471.000,2488.000,2454.000
2484.000,2506.000,2545.000
2540.000,2555.000,2539.000
2558.000,2554.000,2568.000
2565.000,2596.000,2615.000
2605.000,2602.000,2612.000
2671.000,2645.000,2652.000
2708.000,2683.000,2709.000
2704.000,2739.000,2746.000
2783.000,2807.000,2761.000
2818.000,2843.000,2855.000
2924.000,2887.000,2880.000
2967.000,2970.000,2983.000
3065.000,3036.000,3083.000
3169.000,3197.000,3163.000
3282.000,3253.000,3297.000
3404.000,3428.000,3451.000
3582.000,3563.000,3611.000
3699.000,3658.000,3720.000
3859.000,3905.000,3907.000
4074.000,4099.000,4094.000
4268.000,4203.000,4262.000
4399.000,4413.000,4433.000
4577.000,4557.000,4594.000
4669.000,4665.000,4678.000
4774.000,4741.000,4762.000
4773.000,4806.000,4844.000
4826.000,4812.000,4794.000
4723.000,4698.000,4781.000
4717.000,4621.000,4664.000
4590.000,4660.000,4640.000
4515.000,4526.000,4511.000
4412.000,4379.000,4390.000
4336.000,4325.000,4319.000
4227.000,4212.000,4170.000
4081.000,4012.000,4053.000
4013.000,3933.000,3930.000
3877.000,3885.000,3869.000
3745.000,3776.000,3758.000
3627.000,3646.000,3621.000
3554.000,3586.000,3559.000
3415.000,3430.000,3407.000
3366.000,3383.000,3389.000
3265.000,3273.000,3327.000
3195.000,3220.000,3164.000
3117.000,3127.000,3151.000
3048.000,3078.000,3059.000
3006.000,3018.000,3012.000
2925.000,2968.000,2962.000
2845.000,2918.000,2880.000
2839.000,2839.000,2848.000
2716.000,2770.000,2755.000
2700.000,2723.000,2704.000
2691.000,2674.000,2710.000
2632.000,2643.000,2637.000
2574.000,2566.000,2608.000
2611.000,2586.000,2570.000
2534.000,2509.000,2532.000
2527.000,2492.000,2542.000
2487.000,2548.000,2488.000
2507.000,2530.000,2488.000
2477.000,2457.000,2510.000
2421.000,2418.000,2419.000
2432.000,2405.000,2437.000
2425.000,2435.000,2432.000
2402.000,2424.000,2408.000
2395.000,2397.000,2342.000
2430.000,2414.000,2415.000
2403.000,2408.000,2384.000
2387.000,2366.000,2397.000
2408.000,2361.000,2380.000
2370.000,2355.000,2386.000
2340.000,2367.000,2335.000
2343.000,2378.000,2371.000
2303.000,2352.000,2338.000
2341.000,2354.000,2325.000
2325.000,2295.000,2313.000
2292.000,2334.000,2331.000
2245.000,2262.000,2321.000
2265.000,2257.000,2241.000
2239.000,2237.000,2246.000
2185.000,2255.000,2226.000
2192.000,2174.000,2194.000
2198.000,2201.000,2127.000
2187.000,2155.000,2129.000
2126.000,2151.000,2140.000
2098.000,2124.000,2137.000
2113.000,2136.000,2128.000
2082.000,2079.000,2097.000
2081.000,2072.000,2091.000
2063.000,2041.000,2061.000
2045.000,2041.000,1994.000
2055.000,2037.000,2024.000
2013.000,2014.000,1999.000
2008.000,2010.000,1997.000
1976.000,2001.000,1993.000
1960.000,1973.000,1998.000
1969.000,1965.000,1962.000
1982.000,1965.000,1974.000
1947.000,1946.000,1941.000
1935.000,1955.000,1952.000
1924.000,1964.000,1924.000
1914.000,1902.000,1933.000
1924.000,1923.000,1943.000
1916.000,1918.000,1908.000
1912.000,1905.000,1908.000
1905.000,1917.000,1917.000
1913.000,1897.000,1910.000
1916.000,1883.000,1878.000
1875.000,1908.000,1901.000
1891.000,1882.000,1886.000
1873.000,1904.000,1870.000
1885.000,1896.000,1871.000
1887.000,1890.000,1868.000
1888.000,1858.000,1863.000
1859.000,1889.000,1867.000
1878.000,1887.000,1867.000
1876.000,1859.000,1879.000
1876.000,1864.000,1891.000
1874.000,1886.000,1875.000
1853.000,1876.000,1870.000
1858.000,1858.000,1889.000
1867.000,1859.000,1860.000
1873.000,1853.000,1871.000
1882.000,1851.000,1867.000
1856.000,1865.000,1851.000
1869.000,1868.000,1890.000
1866.000,1882.000,1885.000
1883.000,1850.000,1872.000
1843.000,1855.000,1859.000
1884.000,1870.000,1879.000
1861.000,1874.000,1844.000
1863.000,1865.000,1859.000
1880.000,1850.000,1880.000
1871.000,1861.000,1897.000
1861.000,1844.000,1893.000
1864.000,1846.000,1888.000
1870.000,1869.000,1862.000
1842.000,1864.000,1862.000
1883.000,1888.000,1869.000
1901.000,1876.000,1871.000
1871.000,1876.000,1863.000
1879.000,1846.000,1885.000
1881.000,1856.000,1869.000
1858.000,1919.000,1895.000
1904.000,1893.000,1878.000
1871.000,1858.000,1890.000
1852.000,1900.000,1880.000
1894.000,1893.000,1893.000
1913.000,1878.000,1905.000
1871.000,1863.000,1885.000
1899.000,1903.000,1881.000
1878.000,1865.000,1881.000
1898.000,1896.000,1905.000
1907.000,1928.000,1925.000
1880.000,1911.000,1893.000
1921.000,1917.000,1886.000
1919.000,1894.000,1932.000
1927.000,1913.000,1944.000
1906.000,1914.000,1958.000
1920.000,1939.000,1901.000
1962.000,1946.000,1918.000
1941.000,1943.000,1939.000
1980.000,1926.000,1935.000
1931.000,1953.000,1935.000
1930.000,1915.000,1928.000
1956.000,1923.000,1969.000
1936.000,1914.000,1892.000
1946.000,1945.000,1938.000
1917.000,1915.000,1915.000
1923.000,1902.000,1903.000
1901.000,1926.000,1897.000
1894.000,1905.000,1934.000
1914.000,1916.000,1940.000
1907.000,1917.000,1904.000
1885.000,1889.000,1884.000
1897.000,1904.000,1879.000
1886.000,1888.000,1881.000
1861.000,1916.000,1903.000
1880.000,1902.000,1893.000
1867.000,1879.000,1879.000
1880.000,1878.000,1896.000
1879.000,1878.000,1880.000
1877.000,1874.000,1866.000
1848.000,1886.000,1870.000
1861.000,1877.000,1876.000
1871.000,1877.000,1859.000
1860.000,1887.000,1859.000
1896.000,1860.000,1859.000
1861.000,1860.000,1882.000
1876.000,1873.000,1889.000
1869.000,1856.000,1859.000
1881.000,1859.000,1862.000
1862.000,1887.000,1871.000
1874.000,1875.000,1861.000
1878.000,1872.000,1882.000
1886.000,1854.000,1883.000
1868.000,1844.000,1867.000
1882.000,1858.000,1857.000
1889.000,1861.000,1883.000
1853.000,1862.000,1826.000
1851.000,1818.000,1862.000
1866.000,1871.000,1855.000
1875.000,1874.000,1842.000
1857.000,1858.000,1880.000
1844.000,1848.000,1845.000
1888.000,1868.000,1853.000
1855.000,1851.000,1842.000
1870.000,1875.000,1865.000
1847.000,1865.000,1863.000
1893.000,1869.000,1847.000
1861.000,1856.000,1836.000
1864.000,1894.000,1885.000
1875.000,1878.000,1863.000
1864.000,1863.000,1868.000
1869.000,1859.000,1887.000
1847.000,1839.000,1852.000
1864.000,1861.000,1866.000
1869.000,1875.000,1890.000
1841.000,1863.000,1852.000
1855.000,1882.000,1842.000
1856.000,1889.000,1864.000
1877.000,1849.000,1843.000
1848.000,1870.000,1834.000
1858.000,1891.000,1848.000
1844.000,1849.000,1847.000
1863.000,1853.000,1866.000
1875.000,1852.000,1855.000
1861.000,1868.000,1869.000
1864.000,1870.000,1863.000
1864.000,1855.000,1875.000
1860.000,1877.000,1854.000
1871.000,1882.000,1876.000
1861.000,1856.000,1858.000
1893.000,1876.000,1902.000
1871.000,1870.000,1856.000
1864.000,1838.000,1860.000
1842.000,1863.000,1817.000
1883.000,1868.000,1838.000
1851.000,1843.000,1863.000
1879.000,1867.000,1865.000
1872.000,1856.000,1877.000
1877.000,1871.000,1853.000
1833.000,1875.000,1847.000
1859.000,1858.000,1864.000
1863.000,1905.000,1880.000
1859.000,1877.000,1859.000
1858.000,1865.000,1875.000
1882.000,1872.000,1872.000
1856.000,1859.000,1877.000
1877.000,1876.000,1843.000
1874.000,1871.000,1875.000
1865.000,1885.000,1855.000
1875.000,1839.000,1884.000
1850.000,1877.000,1875.000
1877.000,1875.000,1855.000
1851.000,1879.000,1867.000
1886.000,1861.000,1864.000
1851.000,1882.000,1845.000
1858.000,1867.000,1892.000
1855.000,1849.000,1880.000
1882.000,1867.000,1860.000
1866.000,1865.000,1890.000
1870.000,1862.000,1893.000
1887.000,1883.000,1892.000
1878.000,1892.000,1865.000
1855.000,1835.000,1867.000
1861.000,1858.000,1864.000
1864.000,1894.000,1863.000
1880.000,1869.000,1877.000
1848.000,1877.000,1882.000
1893.000,1884.000,1906.000
1869.000,1904.000,1892.000
1882.000,1871.000,1889.000
1888.000,1911.000,1880.000
1883.000,1867.000,1894.000
1878.000,1885.000,1877.000
1893.000,1884.000,1896.000
1891.000,1884.000,1899.000
1876.000,1890.000,1874.000
1924.000,1918.000,1879.000
1908.000,1910.000,1915.000
1893.000,1898.000,1902.000
1905.000,1892.000,1881.000
1876.000,1886.000,1882.000
1899.000,1897.000,1920.000
1907.000,1880.000,1892.000
1907.000,1917.000,1868.000
1909.000,1903.000,1926.000
1908.000,1926.000,1921.000
1905.000,1928.000,1925.000
1915.000,1890.000,1900.000
1913.000,1913.000,1905.000
1919.000,1924.000,1927.000
1931.000,1900.000,1908.000
1932.000,1902.000,1919.000
1930.000,1927.000,1928.000
1934.000,1930.000,1920.000
1947.000,1939.000,1936.000
1946.000,1925.000,1960.000
1962.000,1939.000,1957.000
1958.000,1975.000,1949.000
1955.000,1933.000,1943.000
1932.000,1965.000,1991.000
1993.000,1994.000,1981.000
1973.000,1952.000,1978.000
1982.000,1971.000,2007.000
1994.000,1991.000,1962.000
2005.000,1955.000,1992.000
2000.000,2015.000,1959.000
1991.000,2015.000,2000.000
1996.000,1972.000,1979.000
2015.000,2003.000,2008.000
2027.000,1995.000,2006.000
2033.000,2030.000,2044.000
2048.000,2007.000,2035.000
2047.000,2056.000,2049.000
2048.000,2035.000,2049.000
2080.000,2053.000,2082.000
2072.000,2072.000,2058.000
2119.000,2067.000,2073.000
2081.000,2101.000,2121.000
2088.000,2073.000,2099.000
2136.000,2104.000,2098.000
2127.000,2125.000,2096.000
2150.000,2132.000,2114.000
2134.000,2136.000,2169.000
2141.000,2139.000,2157.000
2151.000,2156.000,2143.000
2176.000,2187.000,2209.000
2208.000,2201.000,2167.000
2196.000,2218.000,2243.000
2230.000,2225.000,2199.000
2218.000,2245.000,2201.000
2259.000,2256.000,2241.000
2258.000,2244.000,2242.000
2216.000,2229.000,2235.000
2202.000,2234.000,2225.000
2190.000,2235.000,2232.000
2229.000,2247.000,2236.000
2234.000,2251.000,2219.000
2229.000,2221.000,2246.000
2259.000,2255.000,2255.000
2226.000,2250.000,2258.000
2243.000,2240.000,2277.000
2209.000,2231.000,2234.000
2270.000,2262.000,2258.000
2297.000,2275.000,2250.000
2258.000,2278.000,2265.000
2251.000,2238.000,2250.000
2278.000,2275.000,2285.000
2275.000,2257.000,2258.000
2278.000,2261.000,2288.000
2281.000,2323.000,2303.000
2324.000,2281.000,2324.000
2324.000,2332.000,2311.000
2308.000,2378.000,2331.000
2348.000,2354.000,2373.000
2363.000,2352.000,2380.000
2356.000,2388.000,2370.000
2402.000,2400.000,2398.000
2431.000,2469.000,2442.000
2444.000,2446.000,2438.000
2458.000,2485.000,2484.000
2479.000,2497.000,2512.000
2516.000,2533.000,2501.000
2612.000,2578.000,2581.000
2593.000,2605.000,2590.000
2629.000,2607.000,2615.000
2662.000,2643.000,2676.000
2728.000,2747.000,2711.000
2797.000,2800.000,2772.000
2820.000,2794.000,2821.000
2872.000,2904.000,2879.000
2946.000,2919.000,2972.000
3022.000,2987.000,3060.000
3094.000,3113.000,3125.000
3157.000,3218.000,3219.000
3319.000,3347.000,3324.000
3457.000,3480.000,3445.000
3621.000,3558.000,3661.000
3789.000,3836.000,3846.000
4086.000,4064.000,4062.000
4284.000,4322.000,4299.000
4635.000,4627.000,4587.000
4957.000,5019.000,5072.000
5495.000,5609.000,5665.000
6127.000,6196.000,6279.000
7043.000,7029.000,7005.000
8089.000,8008.000,8119.000
9223.000,9302.000,9385.000
10767.000,10898.000,10958.000
12655.000,12783.000,12749.000
14385.000,14863.000,14747.000
16713.000,16938.000,17112.000
18720.000,18989.000,19167.000
20963.000,21024.000,21171.000
22299.000,22320.000,22486.000
22995.000,23108.000,23215.000
23433.000,23537.000,23473.000
23028.000,23009.000,22998.000
21772.000,21677.000,21462.000
20026.000,19885.000,19920.000
18020.000,17972.000,17918.000
16098.000,15858.000,15779.000
13777.000,13838.000,13699.000
11906.000,11969.000,11837.000
10372.000,10094.000,10133.000
8759.000,8693.000,8596.000
7568.000,7509.000,7427.000
6617.000,6533.000,6490.000
5771.000,5829.000,5734.000
5271.000,5272.000,5293.000
4782.000,4768.000,4779.000
4464.000,4463.000,4360.000
4122.000,4120.000,4123.000
3865.000,3850.000,3895.000
3670.000,3652.000,3707.000
3539.000,3519.000,3479.000
3364.000,3351.000,3363.000
3247.000,3208.000,3221.000
3130.000,3107.000,3136.000
3006.000,3040.000,3034.000
2969.000,2958.000,2954.000
2863.000,2948.000,2869.000
2823.000,2815.000,2820.000
2752.000,2798.000,2747.000
2711.000,2744.000,2698.000
2661.000,2680.000,2648.000
2590.000,2602.000,2617.000
2583.000,2579.000,2577.000
2512.000,2549.000,2541.000
2486.000,2472.000,2504.000
2491.000,2464.000,2445.000
2403.000,2414.000,2422.000
2405.000,2408.000,2433.000
2348.000,2387.000,2394.000
2371.000,2400.000,2335.000
2314.000,2355.000,2368.000
2351.000,2313.000,2314.000
2306.000,2345.000,2305.000
2300.000,2295.000,2257.000
2239.000,2276.000,2303.000
2223.000,2287.000,2264.000
2258.000,2242.000,2264.000
2208.000,2247.000,2267.000
2242.000,2231.000,2235.000
2247.000,2230.000,2247.000
2208.000,2222.000,2197.000
2188.000,2186.000,2190.000
2207.000,2195.000,2216.000
2191.000,2200.000,2182.000
2177.000,2192.000,2169.000
2175.000,2193.000,2179.000
2166.000,2169.000,2174.000
2157.000,2148.000,2190.000
2139.000,2206.000,2172.000
2143.000,2162.000,2163.000
2147.000,2170.000,2141.000
2121.000,2150.000,2148.000
2135.000,2135.000,2124.000
2152.000,2090.000,2138.000
2114.000,2130.000,2122.000
2097.000,2124.000,2153.000
2122.000,2134.000,2135.000
2106.000,2136.000,2114.000
2130.000,2110.000,2127.000
2112.000,2144.000,2136.000
2114.000,2123.000,2120.000
2102.000,2111.000,2128.000
2076.000,2124.000,2108.000
2114.000,2093.000,2133.000
2105.000,2093.000,2118.000
2112.000,2149.000,2121.000
2121.000,2090.000,2113.000
2130.000,2124.000,2138.000
2116.000,2137.000,2103.000
2125.000,2101.000,2134.000
2138.000,2124.000,2152.000
2095.000,2155.000,2142.000
2110.000,2137.000,2180.000
2152.000,2125.000,2135.000
2133.000,2141.000,2149.000
2132.000,2179.000,2151.000
2153.000,2158.000,2143.000
2172.000,2175.000,2169.000
2152.000,2182.000,2158.000
2201.000,2180.000,2165.000
2171.000,2181.000,2154.000
2189.000,2170.000,2189.000
2180.000,2200.000,2165.000
2173.000,2199.000,2192.000
2185.000,2212.000,2201.000
2203.000,2207.000,2221.000
2200.000,2240.000,2195.000
2246.000,2241.000,2265.000
2265.000,2252.000,2255.000
2267.000,2263.000,2247.000
2266.000,2269.000,2269.000
2289.000,2287.000,2254.000
2256.000,2295.000,2280.000
2304.000,2305.000,2307.000
2276.000,2334.000,2286.000
2306.000,2356.000,2345.000
2365.000,2336.000,2328.000
2389.000,2349.000,2374.000
2366.000,2339.000,2404.000
2436.000,2401.000,2415.000
2437.000,2410.000,2398.000
2447.000,2464.000,2427.000
2493.000,2477.000,2477.000
2489.000,2478.000,2486.000
2475.000,2552.000,2501.000
2505.000,2551.000,2531.000
2562.000,2561.000,2570.000
2593.000,2608.000,2556.000
2602.000,2650.000,2615.000
2644.000,2657.000,2633.000
2639.000,2674.000,2699.000
2715.000,2736.000,2758.000
2741.000,2743.000,2826.000
2847.000,2836.000,2839.000
2868.000,2895.000,2907.000
2925.000,2945.000,2936.000
2989.000,2986.000,2996.000
3076.000,3047.000,3098.000
3125.000,3160.000,3175.000
3263.000,3142.000,3198.000
3285.000,3339.000,3361.000
3402.000,3425.000,3434.000
3552.000,3499.000,3513.000
3672.000,3661.000,3672.000
3782.000,3769.000,3768.000
3882.000,3944.000,3958.000
4066.000,4070.000,4116.000
4240.000,4280.000,4268.000
4465.000,4533.000,4543.000
4705.000,4774.000,4699.000
5001.000,5024.000,5006.000
5306.000,5314.000,5333.000
5623.000,5631.000,5622.000
5924.000,6060.000,5923.000
6296.000,6280.000,6323.000
6637.000,6608.000,6706.000
6958.000,6981.000,7020.000
7243.000,7349.000,7323.000
7531.000,7557.000,7559.000
7797.000,7852.000,7794.000
7987.000,7954.000,8026.000
7978.000,7896.000,8086.000
8096.000,8008.000,8153.000
8046.000,8077.000,8063.000
7927.000,7999.000,7959.000
7669.000,7649.000,7610.000
7464.000,7411.000,7356.000
7169.000,7043.000,7108.000
6892.000,6799.000,6772.000
6454.000,6406.000,6414.000
6113.000,6153.000,6081.000
5819.000,5771.000,5754.000
5500.000,5563.000,5557.000
5267.000,5315.000,5283.000
5088.000,5163.000,5080.000
4961.000,5013.000,4984.000
4850.000,4831.000,4834.000
4778.000,4759.000,4759.000
4717.000,4709.000,4731.000
4649.000,4651.000,4661.000
4686.000,4593.000,4670.000
4601.000,4632.000,4644.000
4631.000,4667.000,4647.000
4672.000,4698.000,4708.000
4721.000,4752.000,4696.000
4807.000,4806.000,4766.000
4832.000,4818.000,4903.000
4869.000,4842.000,4948.000
4990.000,5035.000,5036.000
5164.000,5126.000,5167.000
5271.000,5269.000,5230.000
5385.000,5454.000,5417.000
5591.000,5646.000,5660.000
5790.000,5749.000,5819.000
5922.000,5964.000,6051.000
6160.000,6199.000,6259.000
6360.000,6471.000,6454.000
6678.000,6666.000,6744.000
6908.000,6913.000,7115.000
7128.000,7220.000,7239.000
7338.000,7365.000,7320.000
7414.000,7466.000,7500.000
7501.000,7622.000,7591.000
7568.000,7568.000,7589.000
7484.000,7428.000,7536.000
7357.000,7408.000,7364.000
7150.000,7228.000,7160.000
6925.000,6872.000,6956.000
6560.000,6716.000,6665.000
6281.000,6311.000,6342.000
6003.000,6019.000,6024.000
5744.000,5694.000,5792.000
5405.000,5386.000,5398.000
5143.000,5066.000,5107.000
4943.000,4832.000,4897.000
4687.000,4758.000,4719.000
4567.000,4568.000,4558.000
4366.000,4431.000,4353.000
4306.000,4271.000,4292.000
4145.000,4189.000,4195.000
4069.000,4093.000,4165.000
3978.000,4113.000,4029.000
3958.000,3958.000,3996.000
3910.000,3926.000,3888.000
3859.000,3885.000,3874.000
3770.000,3842.000,3819.000
3829.000,3778.000,3819.000
3763.000,3789.000,3730.000
3724.000,3697.000,3667.000
3592.000,3635.000,3583.000
3577.000,3584.000,3571.000
3485.000,3494.000,3479.000
3417.000,3414.000,3428.000
3340.000,3332.000,3309.000
3313.000,3213.000,3293.000
3193.000,3207.000,3229.000
3148.000,3138.000,3130.000
3078.000,3030.000,3052.000
3001.000,3009.000,3039.000
2929.000,2979.000,2916.000
2892.000,2871.000,2869.000
2857.000,2829.000,2822.000
2776.000,2807.000,2784.000
2774.000,2801.000,2754.000
2698.000,2718.000,2702.000
2688.000,2694.000,2729.000
2652.000,2661.000,2662.000
2604.000,2618.000,2610.000
2635.000,2605.000,2595.000
2575.000,2598.000,2532.000
2530.000,2571.000,2507.000
2474.000,2485.000,2536.000
2502.000,2472.000,2513.000
2484.000,2469.000,2498.000
2470.000,2490.000,2461.000
2425.000,2471.000,2424.000
2383.000,2457.000,2424.000
2448.000,2432.000,2440.000
2398.000,2388.000,2421.000
2428.000,2409.000,2361.000
2401.000,2370.000,2393.000
2347.000,2381.000,2363.000
2330.000,2358.000,2337.000
2354.000,2345.000,2354.000
2355.000,2333.000,2331.000
2320.000,2300.000,2342.000
2291.000,2301.000,2297.000
2299.000,2270.000,2292.000
2275.000,2273.000,2279.000
2282.000,2256.000,2256.000
2274.000,2275.000,2292.000
2231.000,2213.000,2257.000
2206.000,2219.000,2219.000
2247.000,2192.000,2213.000
2220.000,2196.000,2233.000
2208.000,2176.000,2184.000
2226.000,2169.000,2225.000
2196.000,2190.000,2165.000
2193.000,2143.000,2157.000
2172.000,2171.000,2185.000
2164.000,2168.000,2142.000
2165.000,2168.000,2162.000
2177.000,2191.000,2187.000
2171.000,2160.000,2151.000
2175.000,2169.000,2167.000
2197.000,2177.000,2167.000
2144.000,2199.000,2149.000
2144.000,2150.000,2180.000
2205.000,2189.000,2165.000
2169.000,2179.000,2170.000
2171.000,2179.000,2169.000
2133.000,2166.000,2160.000
2157.000,2121.000,2139.000
2174.000,2137.000,2159.000
2164.000,2147.000,2150.000
2158.000,2141.000,2147.000
2110.000,2162.000,2189.000
2143.000,2147.000,2145.000
2131.000,2137.000,2145.000
2144.000,2144.000,2138.000
2139.000,2134.000,2197.000
2140.000,2143.000,2153.000
2152.000,2148.000,2183.000
2171.000,2162.000,2176.000
2172.000,2177.000,2159.000
2184.000,2175.000,2174.000
2199.000,2176.000,2191.000
2216.000,2164.000,2163.000
2169.000,2202.000,2176.000
2182.000,2142.000,2199.000
2190.000,2194.000,2235.000
2184.000,2189.000,2196.000
2189.000,2185.000,2207.000
2184.000,2191.000,2237.000
2213.000,2220.000,2223.000
2223.000,2217.000,2217.000
2247.000,2206.000,2206.000
2221.000,2223.000,2209.000
2250.000,2240.000,2230.000
2261.000,2205.000,2259.000
2260.000,2258.000,2247.000
2263.000,2275.000,2258.000
2274.000,2266.000,2290.000
2308.000,2278.000,2271.000
2295.000,2298.000,2306.000
2284.000,2306.000,2306.000
2316.000,2311.000,2323.000
2331.000,2317.000,2294.000
2316.000,2352.000,2342.000
2329.000,2323.000,2374.000
2369.000,2336.000,2342.000
2337.000,2355.000,2364.000
2373.000,2376.000,2369.000
2355.000,2347.000,2408.000
2377.000,2355.000,2388.000
2398.000,2419.000,2418.000
2421.000,2453.000,2429.000
2437.000,2448.000,2459.000
2460.000,2460.000,2452.000
2476.000,2450.000,2463.000
2469.000,2479.000,2504.000
2555.000,2519.000,2520.000
2525.000,2533.000,2514.000
2497.000,2509.000,2516.000
2521.000,2571.000,2536.000
2548.000,2563.000,2578.000
2563.000,2574.000,2560.000
2564.000,2567.000,2603.000
2639.000,2596.000,2602.000
2674.000,2616.000,2668.000
2665.000,2677.000,2674.000
2692.000,2657.000,2697.000
2719.000,2758.000,2738.000
2753.000,2710.000,2794.000
2738.000,2773.000,2770.000
2825.000,2825.000,2861.000
2829.000,2806.000,2856.000
2872.000,2916.000,2902.000
2947.000,2901.000,2928.000
2963.000,2941.000,2996.000
3029.000,3065.000,3039.000
3089.000,3107.000,3134.000
3143.000,3158.000,3148.000
3187.000,3226.000,3255.000
3321.000,3334.000,3336.000
3415.000,3420.000,3443.000
3568.000,3518.000,3586.000
3692.000,3674.000,3738.000
3838.000,3802.000,3823.000
3963.000,3990.000,3933.000
4069.000,4075.000,4036.000
4219.000,4223.000,4211.000
4346.000,4340.000,4344.000
4405.000,4395.000,4469.000
4442.000,4501.000,4486.000
4496.000,4494.000,4469.000
4441.000,4451.000,4479.000
4384.000,4420.000,4441.000
4365.000,4433.000,4347.000
4243.000,4280.000,4258.000
4143.000,4174.000,4199.000
4066.000,4004.000,4051.000
3876.000,3932.000,3907.000
3827.000,3776.000,3827.000
3710.000,3713.000,3655.000
3602.000,3628.000,3598.000
3536.000,3505.000,3550.000
3434.000,3456.000,3409.000
3340.000,3354.000,3362.000
3230.000,3309.000,3311.000
3204.000,3219.000,3213.000
3176.000,3124.000,3172.000
3122.000,3078.000,3079.000
3021.000,3067.000,3072.000
3019.000,2986.000,3000.000
2964.000,2957.000,2948.000
2943.000,2908.000,2928.000
2878.000,2879.000,2899.000
2869.000,2828.000,2858.000
2822.000,2828.000,2845.000
2821.000,2827.000,2829.000
2796.000,2766.000,2800.000
2780.000,2788.000,2759.000
2763.000,2754.000,2745.000
2735.000,2752.000,2765.000
2745.000,2732.000,2740.000
2727.000,2701.000,2778.000
2718.000,2743.000,2710.000
2750.000,2723.000,2735.000
2726.000,2697.000,2722.000
2715.000,2740.000,2739.000
2718.000,2721.000,2683.000
2670.000,2655.000,2664.000
2697.000,2663.000,2679.000
2709.000,2720.000,2702.000
2673.000,2660.000,2666.000
2669.000,2697.000,2674.000
2640.000,2666.000,2663.000
2628.000,2607.000,2646.000
2624.000,2655.000,2642.000
2643.000,2581.000,2639.000
2655.000,2643.000,2628.000
2621.000,2580.000,2645.000
2604.000,2610.000,2651.000
2616.000,2579.000,2636.000
2595.000,2597.000,2606.000
2599.000,2575.000,2615.000
2606.000,2567.000,2558.000
2561.000,2601.000,2561.000
2564.000,2574.000,2582.000
2609.000,2547.000,2579.000
2576.000,2599.000,2569.000
2555.000,2598.000,2580.000
2563.000,2564.000,2573.000
2596.000,2580.000,2586.000
2565.000,2582.000,2618.000
2611.000,2561.000,2588.000
2586.000,2590.000,2598.000
2597.000,2598.000,2604.000
2622.000,2597.000,2563.000
2582.000,2579.000,2576.000
2603.000,2600.000,2597.000
2609.000,2586.000,2588.000
2569.000,2623.000,2585.000
2549.000,2612.000,2610.000
2569.000,2593.000,2600.000
2575.000,2596.000,2566.000
2564.000,2594.000,2585.000
2614.000,2585.000,2564.000
2590.000,2595.000,2577.000
2597.000,2540.000,2634.000
2589.000,2543.000,2580.000
2590.000,2575.000,2558.000
2586.000,2584.000,2571.000
2569.000,2597.000,2580.000
2579.000,2639.000,2640.000
2650.000,2592.000,2599.000
2622.000,2617.000,2576.000
2608.000,2615.000,2625.000
2639.000,2580.000,2630.000
2665.000,2625.000,2644.000
2640.000,2642.000,2682.000
2647.000,2656.000,2637.000
2664.000,2642.000,2704.000
2648.000,2675.000,2682.000
2666.000,2688.000,2715.000
2695.000,2697.000,2687.000
2730.000,2690.000,2690.000
2700.000,2795.000,2741.000
2736.000,2740.000,2763.000
2750.000,2765.000,2750.000
2758.000,2779.000,2806.000
2804.000,2838.000,2844.000
2843.000,2793.000,2840.000
2838.000,2861.000,2862.000
2815.000,2807.000,2857.000
2892.000,2916.000,2875.000
2879.000,2890.000,2888.000
2908.000,2956.000,2936.000
2907.000,2918.000,2919.000
2925.000,2967.000,2975.000
2982.000,2987.000,2947.000
2977.000,2988.000,2967.000
3002.000,2999.000,2967.000
2997.000,3018.000,2995.000
2984.000,2975.000,3030.000
2983.000,2995.000,3002.000
2981.000,3004.000,3016.000
2999.000,3018.000,2997.000
2979.000,3021.000,3010.000
3014.000,3024.000,3018.000
2974.000,2985.000,3002.000
3010.000,2983.000,3007.000
3022.000,3015.000,2997.000
3057.000,3075.000,3012.000
3030.000,3048.000,3044.000
3075.000,3085.000,3085.000
3052.000,3057.000,3027.000
3107.000,3105.000,3124.000
3121.000,3122.000,3095.000
3065.000,3082.000,3106.000
3147.000,3145.000,3146.000
3146.000,3190.000,3132.000
3166.000,3222.000,3148.000
3172.000,3206.000,3206.000
3239.000,3213.000,3245.000
3228.000,3234.000,3262.000
3236.000,3237.000,3265.000
3314.000,3305.000,3270.000
3302.000,3313.000,3345.000
3321.000,3311.000,3380.000
3320.000,3331.000,3344.000
3351.000,3357.000,3407.000
3339.000,3379.000,3391.000
3385.000,3375.000,3398.000
3393.000,3441.000,3458.000
3458.000,3512.000,3485.000
3538.000,3466.000,3498.000
3487.000,3500.000,3530.000
3534.000,3511.000,3502.000
3497.000,3517.000,3519.000
3530.000,3533.000,3580.000
3611.000,3584.000,3595.000
3664.000,3635.000,3627.000
3621.000,3686.000,3693.000
3694.000,3728.000,3682.000
3712.000,3712.000,3717.000
3748.000,3802.000,3741.000
3745.000,3820.000,3785.000
3808.000,3867.000,3866.000
3895.000,3915.000,3889.000
3974.000,3995.000,3976.000
4016.000,3982.000,4000.000
4058.000,4038.000,4095.000
4117.000,4140.000,4206.000
4287.000,4279.000,4237.000
4307.000,4299.000,4353.000
4326.000,4400.000,4486.000
4453.000,4557.000,4516.000
4598.000,4589.000,4646.000
4638.000,4744.000,4781.000
4785.000,4830.000,4890.000
4921.000,4898.000,4944.000
5091.000,5076.000,5079.000
5222.000,5236.000,5304.000
5426.000,5475.000,5464.000
5599.000,5675.000,5663.000
5814.000,5720.000,5876.000
5985.000,6016.000,6006.000
6202.000,6229.000,6170.000
6351.000,6379.000,6458.000
6514.000,6587.000,6615.000
6668.000,6740.000,6618.000
6863.000,6873.000,6929.000
7130.000,6993.000,7087.000
7111.000,7100.000,7167.000
7192.000,7282.000,7265.000
7193.000,7202.000,7211.000
7222.000,7225.000,7198.000
7176.000,7132.000,7085.000
7014.000,7075.000,7043.000
6803.000,6843.000,6839.000
6661.000,6675.000,6700.000
6454.000,6496.000,6540.000
6195.000,6137.000,6268.000
5881.000,5880.000,5822.000
5672.000,5670.000,5620.000
5416.000,5432.000,5515.000
5242.000,5206.000,5206.000
5068.000,4998.000,5045.000
4793.000,4865.000,4869.000
4717.000,4768.000,4782.000
4573.000,4603.000,4614.000
4445.000,4482.000,4487.000
4375.000,4365.000,4436.000
4343.000,4262.000,4406.000
4303.000,4175.000,4320.000
4239.000,4267.000,4266.000
4259.000,4229.000,4215.000
4190.000,4194.000,4200.000
4163.000,4185.000,4192.000
4134.000,4187.000,4199.000
4198.000,4165.000,4177.000
4165.000,4178.000,4207.000
4164.000,4228.000,4200.000
4187.000,4221.000,4240.000
4222.000,4194.000,4183.000
4150.000,4161.000,4142.000
4165.000,4122.000,4152.000
4061.000,4166.000,4086.000
4016.000,4050.000,4059.000
3971.000,3955.000,3962.000
3870.000,3904.000,3915.000
3791.000,3846.000,3791.000
3785.000,3778.000,3734.000
3726.000,3650.000,3667.000
3595.000,3647.000,3600.000
3545.000,3513.000,3544.000
3425.000,3443.000,3417.000
3343.000,3336.000,3362.000
3307.000,3311.000,3260.000
3230.000,3236.000,3233.000
3165.000,3167.000,3180.000
3098.000,3121.000,3121.000
3058.000,3058.000,3046.000
2997.000,3004.000,3009.000
2987.000,2977.000,2960.000
2922.000,2969.000,2935.000
2906.000,2887.000,2937.000
2779.000,2858.000,2879.000
2839.000,2839.000,2843.000
2812.000,2784.000,2806.000
2776.000,2752.000,2731.000
2737.000,2727.000,2724.000
2707.000,2725.000,2726.000
2694.000,2690.000,2676.000
2662.000,2669.000,2684.000
2657.000,2684.000,2656.000
2646.000,2665.000,2646.000
2646.000,2627.000,2607.000
2553.000,2606.000,2608.000
2586.000,2647.000,2562.000
2533.000,2541.000,2577.000
2568.000,2588.000,2543.000
2592.000,2537.000,2541.000
2513.000,2525.000,2547.000
2530.000,2504.000,2502.000
2510.000,2474.000,2502.000
2454.000,2481.000,2451.000
2443.000,2461.000,2459.000
2473.000,2463.000,2455.000
2461.000,2447.000,2448.000
2433.000,2410.000,2434.000
2432.000,2432.000,2407.000
2390.000,2395.000,2407.000
2404.000,2367.000,2386.000
2380.000,2384.000,2337.000
2371.000,2402.000,2379.000
2395.000,2385.000,2333.000
2301.000,2338.000,2330.000
2314.000,2298.000,2331.000
2312.000,2298.000,2319.000
2324.000,2286.000,2302.000
2300.000,2321.000,2284.000
2236.000,2276.000,2292.000
2269.000,2260.000,2251.000
2228.000,2209.000,2254.000
2257.000,2276.000,2231.000
2235.000,2226.000,2211.000
2212.000,2248.000,2221.000
2193.000,2194.000,2208.000
2212.000,2237.000,2205.000
2189.000,2177.000,2150.000
2159.000,2199.000,2198.000
2147.000,2160.000,2137.000
2142.000,2163.000,2173.000
2135.000,2142.000,2167.000
2127.000,2137.000,2165.000
2159.000,2117.000,2154.000
2150.000,2152.000,2148.000
2128.000,2151.000,2153.000
2154.000,2152.000,2153.000
2135.000,2139.000,2148.000
2119.000,2110.000,2119.000
2129.000,2143.000,2104.000
2098.000,2147.000,2125.000
2099.000,2111.000,2103.000
2101.000,2108.000,2101.000
2060.000,2114.000,2106.000
2115.000,2092.000,2101.000
2102.000,2091.000,2078.000
2087.000,2115.000,2084.000
2084.000,2079.000,2091.000
2121.000,2072.000,2093.000
2081.000,2073.000,2090.000
2086.000,2090.000,2100.000
2059.000,2097.000,2077.000
2073.000,2084.000,2044.000
2069.000,2081.000,2067.000
2070.000,2045.000,2054.000
2048.000,2074.000,2028.000
2054.000,2049.000,2079.000
2014.000,2075.000,2041.000
2029.000,2024.000,2040.000
2019.000,2051.000,2024.000
2040.000,2033.000,2019.000
2018.000,2008.000,2049.000
2045.000,2005.000,2029.000
2051.000,2051.000,2026.000
2020.000,2026.000,2029.000
2041.000,1995.000,2012.000
1997.000,2048.000,1999.000
1980.000,1988.000,1991.000
2010.000,2001.000,1963.000
1967.000,1981.000,1984.000
2002.000,1996.000,1995.000
1979.000,1970.000,1969.000
1969.000,1976.000,1963.000
1977.000,1992.000,1968.000
1981.000,1963.000,1963.000
1934.000,1964.000,1973.000
1975.000,1965.000,1992.000
1962.000,1968.000,1971.000
1952.000,1943.000,1948.000
1963.000,1956.000,1959.000
1969.000,1962.000,1958.000
1980.000,1970.000,1974.000
1958.000,1939.000,1949.000
1935.000,1959.000,1943.000
1977.000,1965.000,1960.000
1960.000,1972.000,1956.000
1942.000,1964.000,1958.000
1958.000,1939.000,1977.000
1984.000,1968.000,1990.000
1962.000,1978.000,1950.000
1973.000,1967.000,1961.000
1948.000,1962.000,1986.000
1988.000,1995.000,1991.000
1966.000,1941.000,1986.000
1989.000,1968.000,1974.000
1949.000,1966.000,1957.000
2002.000,1979.000,1955.000
1962.000,1966.000,1975.000
1972.000,1978.000,1949.000
1976.000,1953.000,1981.000
1957.000,1958.000,1960.000
1968.000,1991.000,1985.000
1973.000,1971.000,1958.000
1943.000,1963.000,1963.000
1984.000,1976.000,1935.000
1996.000,1963.000,1960.000
1956.000,1970.000,1961.000
1973.000,1943.000,1940.000
1944.000,1959.000,1938.000
1961.000,1942.000,1949.000
1935.000,1939.000,1909.000
1952.000,1962.000,1945.000
1941.000,1911.000,1928.000
1919.000,1940.000,1912.000
1959.000,1898.000,1928.000
1912.000,1941.000,1908.000
1943.000,1920.000,1927.000
1928.000,1905.000,1911.000
1902.000,1935.000,1880.000
1913.000,1938.000,1906.000
1906.000,1895.000,1915.000
1899.000,1917.000,1904.000
1939.000,1926.000,1913.000
1904.000,1897.000,1924.000
1899.000,1892.000,1923.000
1888.000,1894.000,1903.000
1909.000,1899.000,1923.000
1942.000,1903.000,1923.000
1901.000,1893.000,1905.000
1919.000,1921.000,1914.000
1883.000,1907.000,1942.000
1913.000,1908.000,1906.000
1918.000,1916.000,1876.000
1928.000,1925.000,1892.000
1885.000,1899.000,1880.000
1925.000,1897.000,1895.000
1904.000,1908.000,1884.000
1889.000,1894.000,1898.000
1898.000,1877.000,1907.000
1863.000,1874.000,1873.000
1902.000,1872.000,1877.000
1894.000,1900.000,1895.000
1858.000,1886.000,1899.000
1878.000,1861.000,1884.000
1848.000,1856.000,1885.000
1861.000,1857.000,1864.000
1854.000,1855.000,1851.000
1863.000,1846.000,1875.000
1849.000,1849.000,1844.000
1855.000,1836.000,1856.000
1819.000,1865.000,1816.000
1829.000,1870.000,1806.000
1861.000,1855.000,1852.000
1858.000,1842.000,1831.000
1852.000,1838.000,1863.000
1843.000,1833.000,1814.000
1863.000,1853.000,1843.000
1847.000,1847.000,1840.000
1820.000,1850.000,1855.000
1855.000,1819.000,1838.000
1830.000,1881.000,1860.000
1824.000,1830.000,1846.000
1832.000,1830.000,1856.000
1863.000,1849.000,1853.000
1858.000,1845.000,1832.000
1843.000,1870.000,1857.000
1847.000,1881.000,1831.000
1852.000,1858.000,1856.000
1827.000,1847.000,1841.000
1845.000,1839.000,1867.000
1816.000,1846.000,1839.000
1819.000,1842.000,1808.000
1857.000,1841.000,1828.000
1850.000,1823.000,1842.000
1819.000,1816.000,1852.000
1827.000,1819.000,1829.000
1825.000,1804.000,1837.000
1837.000,1838.000,1823.000
1811.000,1830.000,1812.000
1822.000,1811.000,1805.000
1819.000,1793.000,1813.000
1811.000,1829.000,1814.000
1792.000,1807.000,1811.000
1812.000,1832.000,1806.000
1802.000,1808.000,1813.000
1803.000,1809.000,1828.000
1807.000,1806.000,1839.000
1799.000,1795.000,1795.000
1810.000,1818.000,1814.000
1803.000,1826.000,1818.000
1783.000,1806.000,1806.000
1786.000,1794.000,1812.000
1805.000,1797.000,1812.000
1802.000,1789.000,1813.000
1786.000,1864.000,1830.000
1809.000,1811.000,1818.000
1803.000,1783.000,1815.000
1815.000,1820.000,1804.000
1802.000,1829.000,1804.000
1795.000,1817.000,1832.000
1788.000,1811.000,1823.000
1782.000,1816.000,1826.000
1779.000,1808.000,1823.000
1780.000,1820.000,1790.000
1791.000,1810.000,1817.000
1792.000,1828.000,1794.000
1784.000,1812.000,1784.000
1805.000,1784.000,1791.000
1816.000,1795.000,1799.000
1821.000,1786.000,1804.000
1793.000,1787.000,1772.000
1778.000,1767.000,1793.000
1779.000,1769.000,1799.000
1801.000,1771.000,1785.000
1792.000,1774.000,1799.000
1779.000,1776.000,1772.000
1785.000,1779.000,1778.000
1779.000,1768.000,1758.000
1771.000,1776.000,1767.000
1771.000,1757.000,1767.000
1771.000,1753.000,1742.000
1764.000,1772.000,1772.000
1767.000,1751.000,1752.000
1769.000,1762.000,1745.000
1752.000,1757.000,1741.000
1735.000,1759.000,1743.000
1737.000,1727.000,1769.000
1733.000,1756.000,1745.000
1721.000,1740.000,1731.000
1730.000,1728.000,1740.000
1739.000,1762.000,1739.000
1752.000,1747.000,1731.000
1733.000,1739.000,1731.000
1729.000,1726.000,1716.000
1735.000,1720.000,1752.000
1733.000,1732.000,1741.000
1747.000,1747.000,1721.000
1732.000,1727.000,1752.000
1731.000,1723.000,1741.000
1717.000,1741.000,1729.000
1730.000,1723.000,1731.000
1760.000,1747.000,1727.000
1745.000,1732.000,1736.000
1745.000,1738.000,1755.000
1760.000,1734.000,1736.000
1738.000,1723.000,1748.000
1724.000,1737.000,1732.000
1725.000,1700.000,1737.000
1719.000,1725.000,1730.000
1729.000,1731.000,1738.000
1706.000,1704.000,1734.000
1721.000,1708.000,1728.000
1711.000,1736.000,1729.000
1716.000,1722.000,1721.000
1722.000,1722.000,1734.000
1700.000,1710.000,1716.000
1697.000,1712.000,1730.000
1700.000,1692.000,1708.000
1710.000,1698.000,1690.000
1711.000,1700.000,1699.000
1666.000,1690.000,1695.000
1689.000,1688.000,1691.000
1692.000,1700.000,1696.000
1682.000,1697.000,1679.000
1681.000,1690.000,1664.000
1679.000,1683.000,1688.000
1685.000,1676.000,1689.000
1655.000,1697.000,1690.000
1682.000,1663.000,1696.000
1680.000,1674.000,1675.000
1669.000,1664.000,1678.000
1676.000,1675.000,1680.000
1680.000,1666.000,1687.000
1664.000,1700.000,1670.000
1700.000,1712.000,1665.000
1683.000,1683.000,1696.000
1684.000,1686.000,1703.000
1705.000,1675.000,1666.000
1701.000,1673.000,1675.000
1670.000,1675.000,1694.000
1688.000,1665.000,1675.000
1669.000,1659.000,1666.000
1663.000,1687.000,1671.000
1683.000,1681.000,1696.000
1682.000,1660.000,1671.000
1682.000,1682.000,1669.000
1670.000,1677.000,1688.000
1691.000,1663.000,1669.000
1660.000,1659.000,1650.000
1652.000,1682.000,1664.000
1655.000,1664.000,1651.000
1664.000,1669.000,1651.000
1675.000,1654.000,1669.000
1662.000,1675.000,1643.000
1635.000,1644.000,1646.000
1637.000,1665.000,1654.000
1641.000,1681.000,1660.000
1635.000,1627.000,1677.000
1637.000,1636.000,1635.000
1636.000,1649.000,1653.000
1641.000,1621.000,1623.000
1634.000,1643.000,1678.000
1643.000,1652.000,1625.000
1635.000,1641.000,1643.000
1652.000,1645.000,1655.000
1634.000,1630.000,1640.000
1636.000,1647.000,1661.000
1635.000,1655.000,1620.000
1638.000,1649.000,1654.000
1650.000,1618.000,1649.000
1638.000,1666.000,1648.000
1622.000,1657.000,1673.000
1646.000,1657.000,1640.000
1616.000,1637.000,1649.000
1642.000,1652.000,1651.000
1643.000,1607.000,1642.000
1632.000,1643.000,1634.000
1646.000,1656.000,1628.000
1646.000,1652.000,1653.000
1633.000,1645.000,1657.000
1643.000,1647.000,1668.000
1649.000,1629.000,1640.000
1644.000,1634.000,1655.000
1632.000,1629.000,1643.000
1640.000,1628.000,1645.000
1620.000,1638.000,1614.000
1627.000,1633.000,1628.000
1626.000,1620.000,1617.000
1618.000,1614.000,1614.000
1613.000,1628.000,1643.000
1629.000,1616.000,1617.000
1597.000,1610.000,1622.000
1606.000,1608.000,1598.000
1600.000,1616.000,1617.000
1620.000,1603.000,1620.000
1630.000,1620.000,1627.000
1591.000,1616.000,1623.000
1597.000,1613.000,1617.000
1604.000,1585.000,1610.000
1610.000,1608.000,1619.000
1606.000,1603.000,1617.000
1589.000,1594.000,1615.000
1605.000,1611.000,1620.000
1613.000,1606.000,1625.000
1605.000,1619.000,1607.000
1603.000,1616.000,1611.000
1605.000,1617.000,1612.000
1594.000,1596.000,1584.000
1594.000,1615.000,1596.000
1611.000,1616.000,1590.000
1602.000,1616.000,1620.000
1592.000,1599.000,1600.000
1618.000,1600.000,1605.000
1587.000,1610.000,1602.000
1602.000,1596.000,1610.000
1605.000,1585.000,1608.000
1592.000,1592.000,1608.000
1603.000,1597.000,1594.000
1594.000,1588.000,1601.000
1579.000,1595.000,1590.000
1602.000,1589.000,1583.000
1605.000,1588.000,1607.000
1602.000,1592.000,1585.000
1575.000,1579.000,1596.000
1588.000,1577.000,1591.000
1571.000,1591.000,1586.000
1583.000,1581.000,1573.000
1588.000,1598.000,1587.000
1554.000,1572.000,1573.000
1570.000,1586.000,1574.000
1571.000,1579.000,1576.000
1596.000,1556.000,1589.000
1587.000,1559.000,1568.000
1572.000,1537.000,1579.000
1579.000,1557.000,1570.000
1572.000,1574.000,1564.000
1565.000,1573.000,1558.000
1546.000,1559.000,1560.000
1540.000,1568.000,1571.000
1557.000,1581.000,1574.000
1578.000,1560.000,1548.000
1564.000,1530.000,1546.000
1552.000,1547.000,1571.000
1549.000,1562.000,1531.000
1553.000,1547.000,1549.000
1561.000,1550.000,1560.000
1572.000,1551.000,1546.000
1566.000,1552.000,1565.000
1551.000,1552.000,1570.000
1561.000,1543.000,1556.000
1542.000,1525.000,1547.000
1543.000,1547.000,1557.000
1583.000,1550.000,1548.000
1563.000,1542.000,1568.000
1556.000,1543.000,1554.000
1556.000,1554.000,1567.000
1549.000,1546.000,1561.000
1532.000,1535.000,1543.000
1536.000,1547.000,1563.000
1549.000,1551.000,1534.000
1523.000,1556.000,1562.000
1538.000,1550.000,1546.000
1545.000,1523.000,1555.000
1546.000,1552.000,1560.000
1543.000,1549.000,1526.000
1554.000,1557.000,1548.000
1523.000,1525.000,1535.000
1545.000,1554.000,1530.000
1553.000,1546.000,1544.000
1532.000,1534.000,1520.000
1535.000,1525.000,1537.000
1556.000,1516.000,1535.000
1530.000,1540.000,1524.000
1522.000,1527.000,1528.000
1518.000,1522.000,1511.000
1525.000,1517.000,1533.000
1527.000,1536.000,1533.000
1528.000,1527.000,1532.000
1499.000,1534.000,1507.000
1513.000,1524.000,1490.000
1508.000,1516.000,1527.000
1534.000,1510.000,1510.000
1518.000,1511.000,1519.000
1521.000,1527.000,1511.000
1512.000,1499.000,1516.000
1518.000,1524.000,1512.000
1515.000,1514.000,1514.000
1484.000,1501.000,1519.000
1507.000,1521.000,1509.000
1508.000,1504.000,1512.000
1504.000,1506.000,1491.000
1509.000,1504.000,1508.000
1496.000,1507.000,1514.000
1509.000,1530.000,1495.000
1510.000,1501.000,1507.000
1519.000,1500.000,1504.000
1502.000,1518.000,1523.000
1522.000,1527.000,1515.000
1513.000,1512.000,1523.000
1513.000,1512.000,1506.000
1517.000,1513.000,1526.000
1503.000,1508.000,1504.000
1522.000,1506.000,1503.000
1507.000,1524.000,1494.000
1501.000,1510.000,1526.000
1507.000,1507.000,1523.000
1514.000,1491.000,1488.000
1517.000,1503.000,1499.000
1493.000,1499.000,1496.000
1506.000,1519.000,1484.000
1494.000,1497.000,1499.000
1487.000,1496.000,1484.000
1508.000,1497.000,1481.000
1509.000,1496.000,1479.000
1481.000,1474.000,1489.000
1499.000,1463.000,1492.000
1489.000,1497.000,1488.000
1488.000,1489.000,1480.000
1478.000,1486.000,1493.000
1489.000,1475.000,1477.000
1477.000,1477.000,1489.000
1471.000,1463.000,1491.000
1472.000,1481.000,1479.000
1476.000,1463.000,1463.000
1486.000,1470.000,1483.000
1484.000,1471.000,1493.000
1474.000,1463.000,1464.000
1458.000,1463.000,1467.000
1460.000,1461.000,1457.000
1460.000,1451.000,1465.000
1444.000,1466.000,1451.000
1451.000,1467.000,1463.000
1464.000,1463.000,1471.000
1475.000,1465.000,1459.000
1458.000,1473.000,1455.000
1456.000,1451.000,1451.000
1446.000,1446.000,1474.000
1459.000,1446.000,1459.000
1443.000,1472.000,1460.000
1477.000,1473.000,1454.000
1451.000,1451.000,1459.000
1460.000,1472.000,1452.000
1470.000,1447.000,1459.000
1449.000,1441.000,1455.000
1469.000,1446.000,1449.000
1463.000,1436.000,1469.000
1463.000,1466.000,1432.000
1457.000,1457.000,1464.000
1445.000,1449.000,1452.000
1460.000,1449.000,1464.000
1452.000,1464.000,1442.000
1451.000,1454.000,1446.000
1456.000,1437.000,1461.000
1443.000,1460.000,1448.000
1453.000,1448.000,1447.000
1447.000,1440.000,1447.000
1431.000,1447.000,1452.000
1454.000,1437.000,1450.000
1445.000,1439.000,1440.000
1432.000,1436.000,1435.000
1440.000,1446.000,1429.000
1449.000,1456.000,1437.000
1436.000,1441.000,1449.000
1442.000,1434.000,1437.000
1439.000,1433.000,1440.000
1438.000,1426.000,1420.000
1436.000,1423.000,1431.000
1419.000,1430.000,1447.000
1432.000,1427.000,1437.000
1403.000,1427.000,1430.000
1418.000,1416.000,1420.000
1424.000,1430.000,1421.000
1416.000,1419.000,1422.000
1417.000,1398.000,1406.000
1400.000,1418.000,1418.000
1419.000,1417.000,1411.000
1411.000,1408.000,1411.000
1410.000,1416.000,1419.000
1402.000,1426.000,1413.000
1412.000,1396.000,1410.000
1413.000,1402.000,1422.000
1390.000,1413.000,1397.000
1399.000,1413.000,1402.000
1413.000,1406.000,1401.000
1420.000,1397.000,1407.000
1398.000,1411.000,1395.000
1416.000,1414.000,1403.000
1402.000,1400.000,1399.000
1394.000,1421.000,1392.000
1415.000,1391.000,1402.000
1388.000,1411.000,1414.000
1405.000,1396.000,1406.000
1411.000,1408.000,1397.000
1411.000,1404.000,1406.000
1401.000,1399.000,1408.000
1400.000,1403.000,1403.000
1396.000,1397.000,1389.000
1392.000,1404.000,1404.000
1388.000,1407.000,1397.000
1398.000,1400.000,1393.000
1395.000,1400.000,1400.000
1382.000,1396.000,1388.000
1379.000,1386.000,1395.000
1379.000,1389.000,1392.000
1395.000,1379.000,1380.000
1388.000,1386.000,1386.000
1392.000,1383.000,1387.000
1387.000,1386.000,1394.000
1395.000,1375.000,1392.000
1384.000,1392.000,1372.000
1393.000,1367.000,1369.000
1380.000,1370.000,1377.000
1372.000,1362.000,1381.000
1366.000,1368.000,1378.000
1380.000,1375.000,1366.000
1367.000,1375.000,1379.000
1361.000,1358.000,1361.000
1356.000,1359.000,1356.000
